Time,Average(A)
(us),(V)
-0.00029952,0.3933626
0.00370048,0.399823
0.00770048,0.4063426
0.01170048,0.4129146
0.01570048,0.419546
0.01970048,0.4262311
0.02370048,0.4329766
0.02770048,0.4397767
0.03170048,0.446632
0.03570048,0.4535387
0.03970048,0.4605005
0.04370048,0.4675164
0.04770048,0.4745854
0.05170048,0.4817104
0.05570048,0.4888826
0.05970048,0.4961081
0.06370048,0.5033855
0.06770048,0.5107139
0.07170048,0.5180888
0.07570048,0.5255165
0.07970048,0.5329926
0.08370048,0.5405137
0.08770048,0.5480843
0.09170048,0.5557027
0.09570048,0.5633696
0.09970048,0.571079
0.10370048,0.5788333
0.10770048,0.5866328
0.11170048,0.5944753
0.11570048,0.6023603
0.11970048,0.6102908
0.12370048,0.6182593
0.12770048,0.626269
0.13170048,0.634321
0.13570048,0.6424116
0.13970048,0.6505367
0.14370048,0.658703
0.14770048,0.6669024
0.15170048,0.6751431
0.15570048,0.6834134
0.15970048,0.6917225
0.16370048,0.7000633
0.16770048,0.7084353
0.17170048,0.7168434
0.17570048,0.7252766
0.17970048,0.7337433
0.18370048,0.7422413
0.18770048,0.7507648
0.19170048,0.7593173
0.19570048,0.7678958
0.19970048,0.7764995
0.20370048,0.7851292
0.20770048,0.7937777
0.21170048,0.8024533
0.21570048,0.8111497
0.21970048,0.819867
0.22370048,0.8286051
0.22770048,0.8373607
0.23170048,0.8461343
0.23570048,0.8549277
0.23970048,0.8637344
0.24370048,0.8725584
0.24770048,0.8813965
0.25170048,0.8902462
0.25570048,0.8991083
0.25970048,0.9079827
0.26370048,0.9168637
0.26770048,0.9257569
0.27170048,0.9346585
0.27570048,0.9435666
0.27970048,0.9524802
0.28370048,0.9614005
0.28770048,0.9703242
0.29170048,0.9792536
0.29570048,0.9881812
0.29970048,0.9971103
0.30370048,1.00604
0.30770048,1.01497
0.31170048,1.023899
0.31570048,1.032822
0.31970048,1.041744
0.32370047,1.05066
0.32770047,1.05957
0.33170047,1.068473
0.33570047,1.077367
0.33970047,1.086254
0.34370047,1.09513
0.34770047,1.103994
0.35170047,1.112847
0.35570047,1.12169
0.35970047,1.130518
0.36370047,1.139327
0.36770047,1.148125
0.37170047,1.156904
0.37570047,1.165663
0.37970047,1.174408
0.38370047,1.183128
0.38770047,1.191832
0.39170047,1.200512
0.39570047,1.209171
0.39970047,1.217804
0.40370047,1.226413
0.40770047,1.235001
0.41170047,1.243559
0.41570047,1.252097
0.41970047,1.2606
0.42370047,1.269072
0.42770047,1.277519
0.43170047,1.285931
0.43570047,1.294314
0.43970047,1.302663
0.44370047,1.310982
0.44770047,1.319264
0.45170047,1.327511
0.45570047,1.335721
0.45970047,1.343899
0.46370047,1.352036
0.46770047,1.360137
0.47170047,1.368196
0.47570047,1.376219
0.47970047,1.384202
0.48370047,1.392144
0.48770047,1.400037
0.49170047,1.407894
0.49570047,1.415705
0.49970047,1.423471
0.50370047,1.431195
0.50770047,1.438875
0.51170047,1.446505
0.51570047,1.454093
0.51970047,1.461627
0.52370047,1.469119
0.52770047,1.476562
0.53170047,1.483951
0.53570047,1.491291
0.53970047,1.498586
0.54370047,1.505834
0.54770047,1.513023
0.55170047,1.520164
0.55570047,1.527248
0.55970047,1.534281
0.56370047,1.54126
0.56770047,1.548183
0.57170047,1.555052
0.57570047,1.561869
0.57970047,1.568631
0.58370047,1.575336
0.58770047,1.581986
0.59170047,1.588578
0.59570047,1.595113
0.59970047,1.601588
0.60370047,1.608011
0.60770047,1.614372
0.61170047,1.620679
0.61570047,1.626923
0.61970047,1.633112
0.62370047,1.639241
0.62770047,1.645315
0.63170047,1.651323
0.63570047,1.657272
0.63970047,1.663163
0.64370047,1.668995
0.64770047,1.674764
0.65170047,1.680476
0.65570047,1.686123
0.65970047,1.691713
0.66370047,1.69724
0.66770047,1.702707
0.67170047,1.708113
0.67570047,1.713458
0.67970046,1.718744
0.68370046,1.723965
0.68770046,1.729131
0.69170046,1.73423
0.69570046,1.739269
0.69970046,1.744249
0.70370046,1.749166
0.70770046,1.754026
0.71170046,1.758823
0.71570046,1.763556
0.71970046,1.768232
0.72370046,1.772846
0.72770046,1.777395
0.73170046,1.781891
0.73570046,1.786326
0.73970046,1.790695
0.74370046,1.795008
0.74770046,1.799261
0.75170046,1.803453
0.75570046,1.807589
0.75970046,1.811663
0.76370046,1.815678
0.76770046,1.819639
0.77170046,1.823539
0.77570046,1.82738
0.77970046,1.831164
0.78370046,1.834891
0.78770046,1.83856
0.79170046,1.842173
0.79570046,1.84573
0.79970046,1.84923
0.80370046,1.852679
0.80770046,1.856068
0.81170046,1.859402
0.81570046,1.862682
0.81970046,1.865911
0.82370046,1.869086
0.82770046,1.872209
0.83170046,1.875277
0.83570046,1.878294
0.83970046,1.881257
0.84370046,1.884167
0.84770046,1.887024
0.85170046,1.889834
0.85570046,1.892594
0.85970046,1.895304
0.86370046,1.897971
0.86770046,1.900586
0.87170046,1.903157
0.87570046,1.905675
0.87970046,1.908152
0.88370046,1.910578
0.88770046,1.912959
0.89170046,1.915294
0.89570046,1.917585
0.89970046,1.919832
0.90370046,1.922036
0.90770046,1.924203
0.91170046,1.926322
0.91570046,1.928404
0.91970046,1.930445
0.92370046,1.93244
0.92770046,1.934394
0.93170046,1.936304
0.93570046,1.938174
0.93970046,1.94
0.94370046,1.941787
0.94770046,1.94353
0.95170046,1.945243
0.95570046,1.946907
0.95970046,1.948536
0.96370046,1.950127
0.96770046,1.951681
0.97170046,1.953194
0.97570046,1.954674
0.97970046,1.956114
0.98370046,1.957521
0.98770046,1.95889
0.99170046,1.960227
0.99570046,1.96153
0.99970046,1.962799
1.00370046,1.964036
1.00770046,1.96524
1.01170046,1.966411
1.01570046,1.967553
1.01970046,1.968663
1.02370046,1.969747
1.02770046,1.9708
1.03170045,1.971825
1.03570045,1.97282
1.03970045,1.973786
1.04370045,1.97473
1.04770045,1.975646
1.05170045,1.976531
1.05570045,1.977394
1.05970045,1.978232
1.06370045,1.979047
1.06770045,1.979838
1.07170045,1.980603
1.07570045,1.981349
1.07970045,1.982071
1.08370045,1.982769
1.08770045,1.983451
1.09170045,1.984107
1.09570045,1.984746
1.09970045,1.985362
1.10370045,1.98596
1.10770045,1.986541
1.11170045,1.987101
1.11570045,1.987645
1.11970045,1.988167
1.12370045,1.988679
1.12770045,1.989169
1.13170045,1.98964
1.13570045,1.990102
1.13970045,1.990543
1.14370045,1.990973
1.14770045,1.991386
1.15170045,1.991783
1.15570045,1.992168
1.15970045,1.99254
1.16370045,1.992898
1.16770045,1.993246
1.17170045,1.993576
1.17570045,1.993898
1.17970045,1.994209
1.18370045,1.994506
1.18770045,1.994791
1.19170045,1.995066
1.19570045,1.995333
1.19970045,1.995584
1.20370045,1.995831
1.20770045,1.996064
1.21170045,1.996288
1.21570045,1.996506
1.21970045,1.996711
1.22370045,1.996911
1.22770045,1.997102
1.23170045,1.997283
1.23570045,1.997457
1.23970045,1.997623
1.24370045,1.997786
1.24770045,1.997936
1.25170045,1.998082
1.25570045,1.99822
1.25970045,1.998353
1.26370045,1.998479
1.26770045,1.998591
1.27170045,1.998689
1.27570045,1.998772
1.27970045,1.99884
1.28370045,1.998897
1.28770045,1.998942
1.29170045,1.998968
1.29570045,1.998985
1.29970045,1.998994
1.30370045,1.998983
1.30770045,1.998962
1.31170045,1.998935
1.31570045,1.998889
1.31970045,1.998829
1.32370045,1.998755
1.32770045,1.998673
1.33170045,1.998572
1.33570045,1.998463
1.33970045,1.99834
1.34370045,1.998203
1.34770045,1.998056
1.35170045,1.997888
1.35570045,1.99771
1.35970045,1.99752
1.36370045,1.997316
1.36770045,1.997095
1.37170045,1.99686
1.37570045,1.996611
1.37970045,1.996347
1.38370044,1.996072
1.38770044,1.995784
1.39170044,1.995485
1.39570044,1.995171
1.39970044,1.994842
1.40370044,1.994503
1.40770044,1.994146
1.41170044,1.993777
1.41570044,1.993391
1.41970044,1.992992
1.42370044,1.992574
1.42770044,1.992142
1.43170044,1.991695
1.43570044,1.991226
1.43970044,1.990743
1.44370044,1.990238
1.44770044,1.989718
1.45170044,1.989177
1.45570044,1.988615
1.45970044,1.988038
1.46370044,1.987435
1.46770044,1.986814
1.47170044,1.986168
1.47570044,1.985503
1.47970044,1.984811
1.48370044,1.984099
1.48770044,1.983361
1.49170044,1.982599
1.49570044,1.981811
1.49970044,1.981
1.50370044,1.980156
1.50770044,1.979292
1.51170044,1.978396
1.51570044,1.977474
1.51970044,1.976522
1.52370044,1.975541
1.52770044,1.974526
1.53170044,1.973482
1.53570044,1.97241
1.53970044,1.971299
1.54370044,1.970157
1.54770044,1.968979
1.55170044,1.967769
1.55570044,1.966528
1.55970044,1.965251
1.56370044,1.96394
1.56770044,1.962597
1.57170044,1.96122
1.57570044,1.959808
1.57970044,1.958363
1.58370044,1.956881
1.58770044,1.955365
1.59170044,1.953808
1.59570044,1.952218
1.59970044,1.950595
1.60370044,1.948933
1.60770044,1.947231
1.61170044,1.94549
1.61570044,1.943711
1.61970044,1.941892
1.62370044,1.940035
1.62770044,1.938139
1.63170044,1.936203
1.63570044,1.934224
1.63970044,1.932203
1.64370044,1.930141
1.64770044,1.928038
1.65170044,1.925886
1.65570044,1.923691
1.65970044,1.921441
1.66370044,1.919146
1.66770044,1.9168
1.67170044,1.914402
1.67570044,1.911948
1.67970044,1.90944
1.68370044,1.906875
1.68770044,1.90426
1.69170044,1.901585
1.69570044,1.898859
1.69970044,1.896074
1.70370044,1.89323
1.70770044,1.890334
1.71170044,1.887372
1.71570044,1.884353
1.71970044,1.881272
1.72370044,1.878134
1.72770044,1.874924
1.73170044,1.871661
1.73570044,1.868329
1.73970043,1.864937
1.74370043,1.861476
1.74770043,1.857957
1.75170043,1.854369
1.75570043,1.850717
1.75970043,1.846997
1.76370043,1.843214
1.76770043,1.839358
1.77170043,1.835443
1.77570043,1.83146
1.77970043,1.827413
1.78370043,1.823301
1.78770043,1.819125
1.79170043,1.814887
1.79570043,1.810584
1.79970043,1.806218
1.80370043,1.801787
1.80770043,1.797289
1.81170043,1.792728
1.81570043,1.788103
1.81970043,1.783414
1.82370043,1.778659
1.82770043,1.773837
1.83170043,1.768952
1.83570043,1.764003
1.83970043,1.758988
1.84370043,1.753909
1.84770043,1.748762
1.85170043,1.74355
1.85570043,1.738279
1.85970043,1.732943
1.86370043,1.72754
1.86770043,1.722078
1.87170043,1.716549
1.87570043,1.710954
1.87970043,1.7053
1.88370043,1.699579
1.88770043,1.693797
1.89170043,1.687951
1.89570043,1.682042
1.89970043,1.676071
1.90370043,1.670033
1.90770043,1.663928
1.91170043,1.657755
1.91570043,1.651519
1.91970043,1.645213
1.92370043,1.638838
1.92770043,1.632396
1.93170043,1.62589
1.93570043,1.619312
1.93970043,1.612671
1.94370043,1.605964
1.94770043,1.599188
1.95170043,1.592345
1.95570043,1.585439
1.95970043,1.578464
1.96370043,1.571423
1.96770043,1.564317
1.97170043,1.557142
1.97570043,1.549909
1.97970043,1.542606
1.98370043,1.535241
1.98770043,1.527807
1.99170043,1.520313
1.99570043,1.512757
1.99970043,1.505142
2.00370043,1.497464
2.00770043,1.48973
2.01170043,1.481944
2.01570043,1.474104
2.01970043,1.466217
2.02370043,1.458272
2.02770043,1.450279
2.03170043,1.442236
2.03570043,1.434141
2.03970043,1.425996
2.04370043,1.417803
2.04770043,1.40956
2.05170043,1.40127
2.05570043,1.392939
2.05970043,1.38456
2.06370043,1.376136
2.06770043,1.367676
2.07170043,1.359173
2.07570043,1.350627
2.07970043,1.342042
2.08370043,1.333421
2.08770043,1.324762
2.09170042,1.316067
2.09570042,1.307337
2.09970042,1.298573
2.10370042,1.289778
2.10770042,1.280945
2.11170042,1.272081
2.11570042,1.263184
2.11970042,1.254251
2.12370042,1.245281
2.12770042,1.236285
2.13170042,1.227255
2.13570042,1.218196
2.13970042,1.209103
2.14370042,1.199984
2.14770042,1.19084
2.15170042,1.181667
2.15570042,1.172473
2.15970042,1.16325
2.16370042,1.154009
2.16770042,1.14474
2.17170042,1.135452
2.17570042,1.126143
2.17970042,1.116813
2.18370042,1.107463
2.18770042,1.098096
2.19170042,1.088711
2.19570042,1.079313
2.19970042,1.069898
2.20370042,1.060471
2.20770042,1.051027
2.21170042,1.041573
2.21570042,1.03211
2.21970042,1.022642
2.22370042,1.013168
2.22770042,1.00369
2.23170042,0.994213
2.23570042,0.9847367
2.23970042,0.9752675
2.24370042,0.9658001
2.24770042,0.9563346
2.25170042,0.9468721
2.25570042,0.9374156
2.25970042,0.9279667
2.26370042,0.9185267
2.26770042,0.9090934
2.27170042,0.8996707
2.27570042,0.8902566
2.27970042,0.8808594
2.28370042,0.8714713
2.28770042,0.8620981
2.29170042,0.8527482
2.29570042,0.8434151
2.29970042,0.8341047
2.30370042,0.8248157
2.30770042,0.8155501
2.31170042,0.8063098
2.31570042,0.7971017
2.31970042,0.7879217
2.32370042,0.7787709
2.32770042,0.7696533
2.33170042,0.7605591
2.33570042,0.7515022
2.33970042,0.7424718
2.34370042,0.7334778
2.34770042,0.7245202
2.35170042,0.7155949
2.35570042,0.7067003
2.35970042,0.6978389
2.36370042,0.6890099
2.36770042,0.6802185
2.37170042,0.6714609
2.37570042,0.6627434
2.37970042,0.6540639
2.38370042,0.645427
2.38770042,0.6368272
2.39170042,0.6282703
2.39570042,0.6197516
2.39970042,0.6112773
2.40370042,0.6028478
2.40770042,0.5944603
2.41170042,0.586116
2.41570042,0.577818
2.41970042,0.5695647
2.42370042,0.5613553
2.42770042,0.5531962
2.43170042,0.5450845
2.43570042,0.5370169
2.43970042,0.5290056
2.44370041,0.5210444
2.44770041,0.5131406
2.45170041,0.5052921
2.45570041,0.497499
2.45970041,0.489765
2.46370041,0.4820918
2.46770041,0.4744829
2.47170041,0.4669295
2.47570041,0.459444
2.47970041,0.4520214
2.48370041,0.444659
2.48770041,0.4373617
2.49170041,0.4301271
2.49570041,0.4229572
2.49970041,0.4158549
2.50370041,0.4088197
2.50770041,0.4018523
2.51170041,0.3949533
2.51570041,0.3881217
2.51970041,0.3813617
2.52370041,0.3746726
2.52770041,0.3680531
2.53170041,0.3615046
2.53570041,0.3550302
2.53970041,0.3486263
2.54370041,0.3422967
2.54770041,0.3360385
2.55170041,0.3298579
2.55570041,0.3237449
2.55970041,0.3177069
2.56370041,0.3117382
2.56770041,0.3058379
2.57170041,0.3000095
2.57570041,0.2942502
2.57970041,0.2885557
2.58370041,0.2829333
2.58770041,0.277381
2.59170041,0.2718988
2.59570041,0.2664852
2.59970041,0.2611487
2.60370041,0.2558876
2.60770041,0.2506963
2.61170041,0.2455869
2.61570041,0.2405472
2.61970041,0.2355904
2.62370041,0.2307085
2.62770041,0.2259048
2.63170041,0.221178
2.63570041,0.2165291
2.63970041,0.2119533
2.64370041,0.2074576
2.64770041,0.203034
2.65170041,0.1986906
2.65570041,0.1944232
2.65970041,0.190231
2.66370041,0.1861211
2.66770041,0.1820842
2.67170041,0.1781283
2.67570041,0.1742494
2.67970041,0.1704458
2.68370041,0.1667217
2.68770041,0.1630704
2.69170041,0.1595001
2.69570041,0.1560045
2.69970041,0.1525833
2.70370041,0.1492393
2.70770041,0.145974
2.71170041,0.1427838
2.71570041,0.1396687
2.71970041,0.1366321
2.72370041,0.1336662
2.72770041,0.1307786
2.73170041,0.127968
2.73570041,0.1252309
2.73970041,0.1225669
2.74370041,0.119983
2.74770041,0.1174681
2.75170041,0.1150312
2.75570041,0.1126682
2.75970041,0.1103795
2.76370041,0.1081597
2.76770041,0.1060174
2.77170041,0.1039455
2.77570041,0.1019485
2.77970041,0.1000249
2.78370041,0.09817018
2.78770041,0.09639249
2.79170041,0.09468366
2.79570041,0.09304518
2.7997004,0.09148142
2.8037004,0.08998796
2.8077004,0.08856341
2.8117004,0.08721201
2.8157004,0.08593222
2.8197004,0.0847198
2.8237004,0.08357946
2.8277004,0.08250516
2.8317004,0.08150115
2.8357004,0.08056559
2.8397004,0.0796983
2.8437004,0.07889822
2.8477004,0.07816952
2.8517004,0.0775074
2.8557004,0.07691146
2.8597004,0.07638407
2.8637004,0.07592104
2.8677004,0.07552745
2.8717004,0.07519581
2.8757004,0.07492945
2.8797004,0.0747306
2.8837004,0.07458825
2.8877004,0.07450986
2.8917004,0.07449102
2.8957004,0.07452819
2.8997004,0.07462759
2.9037004,0.07478207
2.9077004,0.07499534
2.9117004,0.07526305
2.9157004,0.07558821
2.9197004,0.07596927
2.9237004,0.07640819
2.9277004,0.07689609
2.9317004,0.07744157
2.9357004,0.07804792
2.9397004,0.07871214
2.9437004,0.0794413
2.9477004,0.08022364
2.9517004,0.08106812
2.9557004,0.08196768
2.9597004,0.08292546
2.9637004,0.0839383
2.9677004,0.08500656
2.9717004,0.08612598
2.9757004,0.08730403
2.9797004,0.08853241
2.9837004,0.08981512
2.9877004,0.09114861
2.9917004,0.09253304
2.9957004,0.09397084
2.9997004,0.09545882
3.0037004,0.0969931
3.0077004,0.09858341
3.0117004,0.1002242
3.0157004,0.1019177
3.0197004,0.1036647
3.0237004,0.1054645
3.0277004,0.1073166
3.0317004,0.1092209
3.0357004,0.1111775
3.0397004,0.1131868
3.0437004,0.1152501
3.0477004,0.1173646
3.0517004,0.1195276
3.0557004,0.1217427
3.0597004,0.124011
3.0637004,0.126328
3.0677004,0.1286946
3.0717004,0.1311157
3.0757004,0.1335853
3.0797004,0.1360987
3.0837004,0.1386623
3.0877004,0.141271
3.0917004,0.1439244
3.0957004,0.1466197
3.0997004,0.1493532
3.1037004,0.1521325
3.1077004,0.154953
3.1117004,0.15781
3.1157004,0.1607082
3.1197004,0.1636439
3.1237004,0.1666191
3.1277004,0.1696299
3.1317004,0.1726786
3.1357004,0.1757623
3.1397004,0.1788843
3.1437004,0.1820378
3.1477004,0.1852269
3.15170039,0.1884487
3.15570039,0.1917038
3.15970039,0.1949918
3.16370039,0.1983099
3.16770039,0.2016589
3.17170039,0.2050405
3.17570039,0.2084521
3.17970039,0.2118908
3.18370039,0.2153602
3.18770039,0.2188606
3.19170039,0.2223856
3.19570039,0.2259401
3.19970039,0.2295159
3.20370039,0.233121
3.20770039,0.2367545
3.21170039,0.2404107
3.21570039,0.2440869
3.21970039,0.2477878
3.22370039,0.2515076
3.22770039,0.2552482
3.23170039,0.2590083
3.23570039,0.2627848
3.23970039,0.266575
3.24370039,0.2703799
3.24770039,0.2741995
3.25170039,0.2780297
3.25570039,0.2818695
3.25970039,0.2857211
3.26370039,0.289583
3.26770039,0.2934547
3.27170039,0.2973326
3.27570039,0.3012167
3.27970039,0.3051091
3.28370039,0.3090084
3.28770039,0.3129149
3.29170039,0.3168275
3.29570039,0.3207487
3.29970039,0.3246698
3.30370039,0.3285976
3.30770039,0.3325227
3.31170039,0.3364454
3.31570039,0.3403696
3.31970039,0.3442912
3.32370039,0.3482077
3.32770039,0.3521219
3.33170039,0.3560313
3.33570039,0.3599385
3.33970039,0.3638446
3.34370039,0.3677434
3.34770039,0.3716374
3.35170039,0.3755308
3.35570039,0.3794144
3.35970039,0.3832825
3.36370039,0.3871438
3.36770039,0.390993
3.37170039,0.39483
3.37570039,0.3986531
3.37970039,0.4024636
3.38370039,0.4062596
3.38770039,0.4100397
3.39170039,0.4138051
3.39570039,0.4175502
3.39970039,0.4212798
3.40370039,0.424988
3.40770039,0.4286753
3.41170039,0.432344
3.41570039,0.4359858
3.41970039,0.4396049
3.42370039,0.4431994
3.42770039,0.4467679
3.43170039,0.4503064
3.43570039,0.4538223
3.43970039,0.457299
3.44370039,0.4607458
3.44770039,0.4641528
3.45170039,0.4675265
3.45570039,0.4708589
3.45970039,0.4741489
3.46370039,0.4773933
3.46770039,0.4805989
3.47170039,0.4837591
3.47570039,0.4868715
3.47970039,0.4899388
3.48370039,0.4929517
3.48770039,0.4959207
3.49170039,0.4988358
3.49570039,0.5016962
3.49970039,0.504504
3.50370039,0.5072533
3.50770038,0.5099447
3.51170038,0.5125783
3.51570038,0.5151498
3.51970038,0.5176629
3.52370038,0.5201104
3.52770038,0.5224914
3.53170038,0.5248105
3.53570038,0.5270613
3.53970038,0.5292431
3.54370038,0.5313563
3.54770038,0.533398
3.55170038,0.5353662
3.55570038,0.5372638
3.55970038,0.5390834
3.56370038,0.5408248
3.56770038,0.5424935
3.57170038,0.5440866
3.57570038,0.5456035
3.57970038,0.5470423
3.58370038,0.5484049
3.58770038,0.5496908
3.59170038,0.5508949
3.59570038,0.5520199
3.59970038,0.5530677
3.60370038,0.554031
3.60770038,0.5549139
3.61170038,0.5557118
3.61570038,0.5564236
3.61970038,0.557055
3.62370038,0.5575955
3.62770038,0.5580519
3.63170038,0.5584202
3.63570038,0.5586985
3.63970038,0.5588874
3.64370038,0.5589843
3.64770038,0.5589924
3.65170038,0.5589064
3.65570038,0.5587285
3.65970038,0.5584579
3.66370038,0.5580869
3.66770038,0.5576188
3.67170038,0.5570488
3.67570038,0.5563744
3.67970038,0.5555997
3.68370038,0.5547207
3.68770038,0.5537286
3.69170038,0.552629
3.69570038,0.5514207
3.69970038,0.5501068
3.70370038,0.5486787
3.70770038,0.547141
3.71170038,0.5454929
3.71570038,0.5437321
3.71970038,0.5418588
3.72370038,0.5398682
3.72770038,0.5377648
3.73170038,0.535551
3.73570038,0.5332214
3.73970038,0.5307754
3.74370038,0.5282177
3.74770038,0.5255421
3.75170038,0.5227469
3.75570038,0.5198396
3.75970038,0.5168089
3.76370038,0.5136636
3.76770038,0.5103993
3.77170038,0.5070142
3.77570038,0.5035142
3.77970038,0.4998938
3.78370038,0.4961565
3.78770038,0.4923028
3.79170038,0.4883371
3.79570038,0.4842504
3.79970038,0.4800526
3.80370038,0.4757369
3.80770038,0.4713081
3.81170038,0.4667616
3.81570038,0.4620979
3.81970038,0.4573181
3.82370038,0.4524195
3.82770038,0.4474066
3.83170038,0.4422761
3.83570038,0.4370331
3.83970038,0.4316742
3.84370038,0.4261979
3.84770038,0.4206086
3.85170038,0.4149036
3.85570038,0.4090829
3.85970037,0.403153
3.86370037,0.3971077
3.86770037,0.3909481
3.87170037,0.3846773
3.87570037,0.3782957
3.87970037,0.3718003
3.88370037,0.3651931
3.88770037,0.3584705
3.89170037,0.3516345
3.89570037,0.3446857
3.89970037,0.3376237
3.90370037,0.3304417
3.90770037,0.3231468
3.91170037,0.3157356
3.91570037,0.3082143
3.91970037,0.3005858
